Time (s),Energy (J)
0.004166666666666667,0.006414517518658824
0.0125,0.006348677996524495
0.020833333333333336,0.006316132984577364
0.02916666666666667,0.006247652824654466
0.0375,0.006215903690146737
0.04583333333333332,0.006184928868175444
0.05416666666666667,0.006141061484024442
0.0625,0.006076908090438586
0.07083333333333333,0.005998867735836133
0.07916666666666666,0.0059056974289993895
0.08749999999999997,0.005814015848630713
0.0958333333333333,0.005752083584826109
0.10416666666666669,0.005694375915092864
0.11250000000000004,0.005639720371913903
0.12083333333333335,0.005623399938072579
0.12916666666666665,0.005618266165379242
0.13749999999999996,0.0055685228865318195
0.14583333333333326,0.005521705677053811
0.15416666666666656,0.005521978143655161
0.16249999999999998,0.005451400063004264
0.1708333333333334,0.005405002122687887
0.17916666666666659,0.00538239781723434
0.1875,0.0053577588057927145
0.19583333333333353,0.0053109927427770764
0.20416666666666683,0.005274373472981472
0.21250000000000013,0.005262645100596666
0.22083333333333344,0.005210509454906392
0.22916666666666674,0.005162990309358642
0.23750000000000004,0.005172719239903811
0.24583333333333335,0.005185718547708329
0.25416666666666665,0.005182693311737846
0.26249999999999996,0.005241986225709053
0.2708333333333335,0.005280346436569536
0.2791666666666668,0.005280138624207509
0.2875000000000001,0.0053193080763427325
0.2958333333333334,0.0053558133826683285
0.3041666666666667,0.005368664701571407
0.3125,0.005380907524887776
0.3208333333333333,0.00541209034213086
0.3291666666666666,0.005453644066294852
0.3374999999999999,0.00550503811003554
0.3458333333333332,0.005552671769959119
0.3541666666666665,0.005586881307580796
0.3624999999999998,0.005624387594131405
0.3708333333333331,0.005663227620742353
0.37916666666666643,0.005725404063284617
0.3875000000000002,0.005776467831135751
0.3958333333333339,0.005825560278374831
0.4041666666666668,0.005858241618950599
0.41249999999999964,0.005893493367072178
0.4208333333333334,0.0059346760534423615
0.42916666666666714,0.0060050199299002405
0.4375,0.006056670912433837
0.44583333333333286,0.006070231122769887
0.4541666666666666,0.0061221184544671126
0.46250000000000036,0.0061848384872791595
0.4708333333333332,0.00620019163341895
0.4791666666666661,0.006234050507317457
0.4874999999999998,0.0062664658486203395
0.49583333333333357,0.006274689599859162
0.5041666666666664,0.006342364081606655
0.5124999999999993,0.0063185246078755475
0.5208333333333321,0.006324629655394348
0.5291666666666668,0.006407619546117321
0.5375000000000014,0.006394451548408925
0.5458333333333343,0.006384033657478971
0.5541666666666671,0.00644324549902503
0.5625,0.0064353994913165236
0.5708333333333329,0.006446603950892943
0.5791666666666657,0.006475150480518499
0.5874999999999986,0.006416657110542234
0.5958333333333332,0.006433246527433156
0.6041666666666679,0.0064954817328545245
0.6125000000000007,0.006417340356740381
0.6208333333333336,0.006367973881701128
0.6291666666666664,0.006345332036489848
0.6374999999999993,0.006251688186568238
0.6458333333333321,0.006251825338718681
0.6541666666666668,0.006286908053166229
0.6625000000000014,0.006254546880777645
0.6708333333333343,0.006245698034041625
0.6791666666666671,0.006235721104525055
0.6875,0.006131919322092616
0.6958333333333329,0.006092158748586124
0.7041666666666657,0.006053942655097372
0.7124999999999986,0.0060254032935529445
0.7208333333333332,0.006038940010044236
0.7291666666666679,0.005955559663738397
0.7375000000000007,0.005849667056118113
0.7458333333333336,0.005804847268622015
0.7541666666666664,0.005748844236612205
0.7624999999999993,0.005707583820384499
0.7708333333333321,0.0057015682889986485
0.779166666666665,0.00568268081874862
0.7874999999999979,0.005748152390461947
0.7958333333333307,0.005718644933229544
0.8041666666666636,0.0056225366441777225
0.8125,0.005606365081717746
0.8208333333333364,0.005590557504210558
0.8291666666666693,0.0055455762716685175
0.8375000000000021,0.005566605802137137
0.845833333333335,0.005595037625743926
0.8541666666666679,0.005611942711198026
0.8625000000000007,0.005644350355312244
0.8708333333333336,0.005628534551961106
0.8791666666666664,0.005623188534949808
0.8874999999999993,0.005614811835735201
0.8958333333333321,0.005586934261013421
0.904166666666665,0.005570235058849349
0.9124999999999979,0.005589255995667508
0.9208333333333307,0.0056180914063878595
0.9291666666666636,0.005656397303907823
0.9375,0.0056869297936761876
0.9458333333333364,0.0057182639559721915
0.9541666666666693,0.0057283516553180425
0.9625000000000021,0.00566374124898994
0.970833333333335,0.00555635686768724
0.9791666666666679,0.005557453787744082
0.9875000000000007,0.005636690341696171
0.9958333333333336,0.00572586786399415
1.0124999999999993,0.0059513082254749605
1.0458333333333343,0.006301518922034843
1.0708333333333364,0.006538621218898422
1.0958333333333314,0.006628105657127459
1.125,0.006653562109502298
1.1375000000000028,0.006692482033022418
1.1458333333333357,0.006756320160822615
1.1541666666666686,0.006724003172731308
1.1625000000000014,0.0067150135898297325
1.1708333333333343,0.0067628157915856635
1.1791666666666671,0.0067738157414633515
1.1875,0.006815793072387388
1.1958333333333329,0.006892172746302605
1.2041666666666657,0.006887508568374501
1.2124999999999986,0.006841225928489847
1.2208333333333314,0.006798674910603597
1.2291666666666643,0.006788434949815958
1.2374999999999972,0.0067381108112675725
1.24583333333333,0.006699426599533154
1.25416666666667,0.006748734579094806
1.2625000000000028,0.006748867325563179
1.2708333333333357,0.006645455293304181
1.2791666666666686,0.006511900221676914
1.2875000000000014,0.006491621542158099
1.2958333333333343,0.006458536356331035
1.3041666666666671,0.006368359639260968
1.3125,0.006363018281331456
1.3208333333333329,0.006386010282136534
1.3291666666666657,0.006311387850879369
1.3374999999999986,0.006183665134203764
1.3458333333333314,0.0061755030365132635
1.3541666666666643,0.006124094524012413
1.3624999999999972,0.00608483443136093
1.37083333333333,0.0060879178307645665
1.37916666666667,0.005979930106024489
1.3875000000000028,0.005890260856941942
1.3958333333333357,0.005837319672717722
1.4041666666666686,0.005741972208676116
1.4125000000000014,0.005647070842195179
1.4208333333333343,0.005681804133256807
1.4291666666666671,0.005590183903518953
1.4375,0.005487004677940555
1.4458333333333329,0.005510783108190254
1.4541666666666657,0.005427975536800411
1.4624999999999986,0.005350977561458192
1.4708333333333314,0.005356729155579498
1.4791666666666643,0.005380006557301753
1.4874999999999972,0.005296231732472012
1.49583333333333,0.00529723049070685
1.50416666666667,0.005288451624472557
1.5125000000000028,0.005192811916797213
1.5208333333333357,0.00517584875168442
1.5291666666666686,0.005179493063712792
1.5374999999999943,0.005191537182081762
1.5458333333333343,0.005188528378498813
1.5541666666666742,0.005181437720748194
1.5625,0.0051769475305371015
1.5708333333333258,0.005213023239485248
1.5791666666666657,0.005211272383600418
1.5875000000000057,0.005230558404984542
1.5958333333333314,0.00528919648830406
1.6041666666666572,0.005313259143774451
1.6124999999999972,0.005329748063812478
1.6208333333333371,0.005379608871171171
1.6291666666666629,0.005394946016864077
1.6375000000000028,0.0054075497517547255
1.6458333333333428,0.005463046240346436
1.6541666666666686,0.005498809674554295
1.6624999999999943,0.005541156140319914
1.6708333333333343,0.005585943713013131
1.6791666666666742,0.005627041002786326
1.6875,0.0056786394465946355
1.6958333333333258,0.005718492249136786
1.7041666666666657,0.0057588076897139295
1.7125000000000057,0.005818604799337823
1.7208333333333314,0.0058634297391102486
1.7291666666666572,0.005906026042785006
1.7374999999999972,0.00594773691608752
1.7458333333333371,0.0059956078555819525
1.7541666666666629,0.006060789649964371
1.7625000000000028,0.006098303300015373
1.7708333333333428,0.006118771285954727
1.7791666666666686,0.006166301365404858
1.7874999999999943,0.006173749005095486
1.7958333333333343,0.0061990292177726
1.8041666666666742,0.006255281263449541
1.8125,0.006299404244945794
1.8208333333333258,0.006336257825491964
1.8291666666666657,0.006339534942269354
1.8375000000000057,0.006348698229328931
1.8458333333333314,0.006372639675894298
1.8541666666666572,0.006371725087421787
1.8624999999999972,0.006337663178326625
1.8708333333333371,0.0063419141380207655
1.8791666666666629,0.006373101669411629
1.8875000000000028,0.006401644927540584
1.8958333333333428,0.006439484684050423
1.9041666666666686,0.006420337701168233
1.9124999999999943,0.006389333890913673
1.9208333333333343,0.006418926392424362
1.9291666666666742,0.006363143253561021
1.9375,0.006220238887735596
1.9458333333333258,0.0061994032358703155
1.9541666666666657,0.006250569569815845
1.9625000000000057,0.006188283901969904
1.9708333333333314,0.006210795602012542
1.9791666666666572,0.006303287829739435
1.9874999999999972,0.006229873575420708
1.9958333333333371,0.006160685432865076
2.004166666666663,0.006078210104388471
2.012500000000003,0.005908523867859006
2.0250000000000057,0.00583970462595218
2.0374999999999943,0.005874155915239987
2.0458333333333343,0.005782893757200758
2.0541666666666742,0.005777474058571208
2.0625,0.005841668652084575
2.0708333333333258,0.005774541976584446
2.0791666666666657,0.005671099021343773
2.0875000000000057,0.0056887484712442316
2.0958333333333314,0.005695209246508348
2.104166666666657,0.0056193043923076225
2.112499999999997,0.005626560049743379
2.120833333333337,0.005581585150322366
2.129166666666663,0.005473585386905455
2.1374999999999886,0.005454686410717113
2.1458333333333144,0.005476107050393919
2.1541666666666686,0.005433034489827793
2.1625000000000227,0.005522803221794548
2.1708333333333485,0.0056303411329819975
2.1791666666666742,0.005620023481624381
2.1875,0.005594960411198335
2.1958333333333258,0.005592046983484034
2.2041666666666515,0.005571748620630146
2.2124999999999773,0.005558099750814449
2.2208333333333314,0.005566257726790758
2.2291666666666856,0.005584966887117404
2.2375000000000114,0.005619653539680414
2.245833333333337,0.0056439563233871
2.254166666666663,0.0056640183482215
2.2624999999999886,0.00561420168434168
2.2708333333333144,0.005364485781918948
2.2791666666666686,0.00525326859881925
2.2875000000000227,0.005402404674468508
2.2958333333333485,0.005549697891949257
2.3125,0.005819631272112491
2.370833333333337,0.006250230001885404
2.4208333333333485,0.006520739546408638
2.4291666666666742,0.006570738955303024
2.4375,0.006579754801128601
2.4458333333333258,0.006641901349242474
2.4541666666666515,0.006698718786037561
2.4624999999999773,0.0066955801550067084
2.4708333333333314,0.006712928468022739
2.4791666666666856,0.006805098767798112
2.4875000000000114,0.00689888019999052
2.495833333333337,0.006948031647871056
2.504166666666663,0.006935731981524085
2.5124999999999886,0.006891699689080433
2.5250000000000057,0.0068252571786342475
2.5375000000000227,0.0067218794606433985
2.5458333333333485,0.006703711291981995
2.5541666666666742,0.0067138030997860865
2.5625,0.006705634003979277
2.5708333333333258,0.006688618452796002
2.5791666666666515,0.006592930691886045
2.5874999999999773,0.006463488321309274
2.5958333333333314,0.006476099699911586
2.6041666666666856,0.006435034591270261
2.6125000000000114,0.006304431829100787
2.620833333333337,0.006298703705449715
2.629166666666663,0.0063000531385678515
2.6374999999999886,0.006173149246244125
2.6458333333333144,0.00610108389747499
2.6541666666666686,0.00609860590527056
2.6625000000000227,0.006042482516966374
2.6708333333333485,0.006010732513337613
2.6791666666666742,0.0059713053462776555
2.6875,0.005867490920710261
2.6958333333333258,0.005802500174591607
2.7041666666666515,0.0057983115409450114
2.7124999999999773,0.005762764918094465
2.7208333333333314,0.005692282159698303
2.7291666666666856,0.005669799386539109
2.7375000000000114,0.005617593866535708
2.745833333333337,0.0055177369132527465
2.754166666666663,0.005434157639621295
2.7624999999999886,0.005379290545013293
2.7708333333333144,0.005389420994649785
2.7791666666666686,0.0053669960844562326
2.7875000000000227,0.005323677245443359
2.7958333333333485,0.00527296889944695
2.8041666666666742,0.00521323753428482
2.8125,0.005172878297512673
2.8208333333333258,0.005122078434192101
2.8291666666666515,0.005131357156705207
2.8374999999999773,0.005185935337330361
2.8458333333333314,0.005198125473407145
2.8541666666666856,0.005150244179192853
2.8625000000000114,0.005141343703268353
2.870833333333337,0.005175407567930113
2.879166666666663,0.005182528494136696
2.8874999999999886,0.005197317040982585
2.8958333333333144,0.005237196769836916
2.9041666666666686,0.005276820736385801
2.9125000000000227,0.005276902719982823
2.9208333333333485,0.005281738742686781
2.9291666666666742,0.005318704798151552
2.9375,0.005351799191211648
2.9458333333333258,0.0053771412995194945
2.9541666666666515,0.005436692970389068
2.9624999999999773,0.005470779851513119
2.9708333333333314,0.005498767660012449
2.9791666666666856,0.00554903472954571
2.9875000000000114,0.0055936982490668585
2.995833333333337,0.0056530065435210775
3.004166666666663,0.0056892298616699755
3.0124999999999886,0.005723090399549324
3.0208333333333144,0.0057892600949622786
3.0291666666666686,0.005842276806902635
3.0374999999999943,0.005883855681292016
3.0458333333332916,0.00591336839820733
3.0541666666666174,0.005928998366503624
3.0625,0.005991067739329781
3.0708333333333826,0.006047143469988692
3.0791666666667084,0.006085500946083622
3.087500000000034,0.006151489945081634
3.09583333333336,0.00614720849812489
3.1041666666666856,0.006118462738816888
3.1125000000000114,0.006203196196842731
3.120833333333337,0.006254638100153587
3.129166666666663,0.006235472300902156
3.1374999999999886,0.006308790899997474
3.1458333333333144,0.006356225416302763
3.15416666666664,0.006352034280512342
3.162499999999966,0.006306120408574145
3.1708333333332916,0.006251064212688062
3.1791666666666174,0.0062422758878646345
3.1875,0.006280658434090425
3.1958333333333826,0.006275228286214407
3.2041666666667084,0.0063157617193558835
3.212500000000034,0.0063372736409395
3.22083333333336,0.006351687423451713
3.2291666666666856,0.006344739153796519
3.2375000000000114,0.006292643783583074
3.245833333333337,0.0062853003964415954
3.254166666666663,0.006267949446346233
3.2624999999999886,0.006223483167147714
3.2708333333333144,0.006186081075532757
3.27916666666664,0.0061863434522664296
3.287499999999966,0.006070998588638243
3.2958333333332916,0.00602602218124515
3.3041666666666174,0.006069397413414279
3.3125,0.006025585630120345
3.3208333333333826,0.005922598522006828
3.3291666666667084,0.005936570134863484
3.337500000000034,0.0059526740586628435
3.34583333333336,0.005867071007271019
3.3541666666666856,0.005878718123583315
3.3625000000000114,0.005881530244847166
3.370833333333337,0.00580085723101309
3.379166666666663,0.005743429167925029
3.3874999999999886,0.00560813860580156
3.3958333333333144,0.005539588978580978
3.40416666666664,0.005642654453941409
3.412499999999966,0.005627587631025444
3.4208333333332916,0.005499709693544963
3.4291666666666174,0.005519355349064892
3.4375,0.005543039304959363
3.4458333333333826,0.005428873208638052
3.4541666666667084,0.0054336073452163625
3.462500000000034,0.005499962664245572
3.47083333333336,0.005446391239141812
3.4791666666666856,0.005453003422687397
3.4875000000000114,0.005519919740457624
3.495833333333337,0.005509152816064011
3.504166666666663,0.005508336908985667
3.5124999999999886,0.00555527430417202
3.5208333333333144,0.00554475306408464
3.52916666666664,0.005514930500137849
3.537499999999966,0.0055582390016606364
3.5458333333332916,0.005610005795918083
3.5541666666666174,0.005612459422618565
3.5625,0.00563631455272029
3.5708333333333826,0.005671356302920483
3.5791666666667084,0.00565842405807615
3.587500000000034,0.005580520560844571
3.59583333333336,0.005534153706305167
3.6041666666666856,0.005603904654650105
3.6125000000000114,0.005689154263667451
3.625,0.005832093035670116
3.6499999999999773,0.006081314203072008
3.6749999999999545,0.006266861988277306
3.6875,0.006349424294807227
3.7000000000000455,0.006424941937470674
3.72083333333336,0.006466451372212578
3.7375000000000114,0.006487028316026988
3.745833333333337,0.006542200542361876
3.754166666666663,0.006613051864216235
3.7624999999999886,0.006634352185297843
3.7708333333333144,0.006591823315458933
3.77916666666664,0.006641919762875537
3.787499999999966,0.0067033645606087155
3.7958333333332916,0.006693666258622555
3.8041666666666174,0.006716347862376404
3.8125,0.006792069985908755
3.8208333333333826,0.006747211017518406
3.8291666666667084,0.006712821646008393
3.837500000000034,0.006736744205899203
3.84583333333336,0.006689167076427971
3.8541666666666856,0.006689135029891657
3.8625000000000114,0.006642007316468357
3.870833333333337,0.006590824436147891
3.879166666666663,0.006540323095667988
3.8874999999999886,0.006478949067909134
3.8958333333333144,0.006386134891750439
3.90416666666664,0.00646216074471484
3.912499999999966,0.006451869920588882
3.9208333333332916,0.006329077592709398
3.9291666666666174,0.006347080002705896
3.9375,0.006332911148902554
3.9458333333333826,0.0062362724659901225
3.9541666666667084,0.006177381864422848
3.962500000000034,0.006144958481915985
3.97083333333336,0.006038483448473242
3.9791666666666856,0.005995162031582124
3.9875000000000114,0.005944478661963792
3.995833333333337,0.005869717590587742
4.004166666666663,0.005794951746215693
4.012499999999989,0.005753388503973111
4.020833333333314,0.005719866478385072
4.02916666666664,0.005675756777932195
4.037499999999966,0.005571046296402926
4.045833333333292,0.005538460975782256
4.054166666666617,0.005493962950397835
4.0625,0.005407348025813219
4.070833333333383,0.0053487849176729885
4.079166666666708,0.005312279259450214
4.087500000000034,0.005312152131951242
4.09583333333336,0.005228032296871632
4.104166666666686,0.0052035717876863785
4.112500000000011,0.005213417866699155
4.120833333333337,0.005173148172000097
4.129166666666663,0.00513462066291237
4.137499999999989,0.0051264536120323445
4.145833333333314,0.0051002280015137735
4.15416666666664,0.00512760015449909
4.162499999999966,0.005154007523465509
4.170833333333292,0.005096026063670767
4.179166666666617,0.005115927626125671
4.1875,0.005150050893383495
4.195833333333383,0.005139485953688405
4.204166666666708,0.005165861788241521
4.212500000000034,0.005202353930501058
4.22083333333336,0.005230181594545025
4.229166666666686,0.0052470131094095596
4.237500000000011,0.005260249633503911
4.245833333333337,0.005304082632357376
4.254166666666663,0.005362895886220853
4.262499999999989,0.005400658464065566
4.270833333333314,0.005421692558708502
4.27916666666664,0.005455126034350721
4.287500000000023,0.005501968379989952
4.2958333333333485,0.0055584213487656076
4.304166666666674,0.005608199687632265
4.3125,0.005641266138805223
4.320833333333326,0.005682818518757182
4.3291666666666515,0.0057245724233072615
4.337499999999977,0.005774647212630102
4.345833333333303,0.005843071375461362
4.354166666666629,0.005878075632521851
4.3624999999999545,0.0058892534379384465
4.37083333333328,0.005932337130412746
4.37916666666672,0.00599426841388806
4.3875000000000455,0.006035237000072913
4.395833333333371,0.006027002760845779
4.404166666666697,0.006069346782432872
4.412500000000023,0.006121131515981704
4.4208333333333485,0.006129429855114887
4.429166666666674,0.006172512673034536
4.4375,0.006242373812852753
4.445833333333326,0.006259246217140246
4.4541666666666515,0.00627119954626143
4.462499999999977,0.006290391665140671
4.470833333333303,0.006293314694479468
4.479166666666629,0.006282504649051557
4.4874999999999545,0.006265182724237484
4.49583333333328,0.006244640472839347
4.50416666666672,0.006250000873937456
4.5125000000000455,0.006232847892306603
4.520833333333371,0.006232819706033732
4.529166666666697,0.006281763537778762
4.537500000000023,0.006333419401410856
4.5458333333333485,0.006330229341255489
